Potential(V)	Current(uA)
0.19003963470459	4.59744453430176
0.189023971557617	4.50636863708496
0.188008308410645	4.41815376281738
0.187070846557617	4.35043811798096
0.186055183410645	4.29464817047119
0.185039520263672	4.21597003936768
0.184023857116699	4.15302753448486
0.183086395263672	4.10820484161377
0.182070732116699	4.04430866241455
0.181055068969727	3.98756504058838
0.180117607116699	3.92176151275635
0.179101943969727	3.87932300567627
0.178086280822754	3.82591724395752
0.177148818969727	3.76678943634033
0.176133155822754	3.72053623199463
0.175117492675781	3.6699914932251
0.174180030822754	3.62659931182861
0.173164367675781	3.57700824737549
0.172148704528809	3.52694034576416
0.171133041381836	3.48164081573486
0.170195579528809	3.442063331604
0.169179916381836	3.3958101272583
0.16816520690918	3.35146427154541
0.167226791381836	3.30759525299072
0.16621208190918	3.28136920928955
0.165196418762207	3.23034763336182
0.164258003234863	3.18933963775635
0.163243293762207	3.15310001373291
0.162227630615234	3.11208724975586
0.161211967468262	3.08347702026367
0.160274505615234	3.04485321044922
0.159258842468262	3.00384521484375
0.158243179321289	2.97094345092773
0.157305717468262	2.93661117553711
0.156290054321289	2.89941787719727
0.155274391174316	2.87128448486328
0.154336929321289	2.85078048706055
0.153321266174316	2.8131103515625
0.152305603027344	2.77639389038086
0.151368141174316	2.75064468383789
0.150352478027344	2.71583557128906
0.149336814880371	2.68627166748047
0.148321151733398	2.65909194946289
0.147383689880371	2.62905120849609
0.146368026733398	2.5999641418457
0.145352363586426	2.57135391235352
0.144414901733398	2.5541877746582
0.143399238586426	2.52414703369141
0.142383575439453	2.49887466430664
0.141446113586426	2.47074127197266
0.140430450439453	2.45119094848633
0.13941478729248	2.42305755615234
0.138399124145508	2.38777160644531
0.13746166229248	2.37346649169922
0.136445999145508	2.34962463378906
0.135430335998535	2.32959747314453
0.134492874145508	2.30289459228516
0.133477210998535	2.28239059448242
0.132461547851563	2.25807189941406
0.131524085998535	2.23184585571289
0.130508422851563	2.20561981201172
0.12949275970459	2.19512939453125
0.128555297851563	2.16508865356445
0.12753963470459	2.14982986450195
0.126523971557617	2.13695526123047
0.125508308410645	2.11025238037109
0.124570846557617	2.09356307983398
0.123555183410645	2.08211898803711
0.122539520263672	2.05875396728516
0.121602058410645	2.0353889465332
0.120586395263672	2.01440811157227
0.119570732116699	2.00201034545898
0.118633270263672	1.98293685913086
0.117617607116699	1.96481704711914
0.116601943969727	1.94478988647461
0.115586280822754	1.93143844604492
0.114648818969727	1.91427230834961
0.113633155822754	1.89901351928711
0.112617492675781	1.86896800994873
0.111680030822754	1.85943126678467
0.110664367675781	1.84178829193115
0.109648704528809	1.82176113128662
0.108711242675781	1.82080745697021
0.107695579528809	1.79982662200928
0.106679916381836	1.78218364715576
0.105742454528809	1.76549434661865
0.104726791381836	1.75166606903076
0.103711128234863	1.73402309417725
0.102695465087891	1.72162532806396
0.101758003234863	1.69921398162842
0.100742340087891	1.68872356414795
0.099726676940918	1.67632579803467
0.0987892150878906	1.66392803192139
0.097773551940918	1.64723873138428
0.0967578887939453	1.64103984832764
0.095820426940918	1.63293361663818
0.0948047637939453	1.61052227020264
0.0937891006469727	1.59860134124756
0.0928516387939453	1.57809734344482
0.0918359756469727	1.57237529754639
0.0908203125	1.56236171722412
0.0898046493530273	1.54805660247803
0.0888671875	1.54185771942139
0.0878515243530273	1.52659893035889
0.0868358612060547	1.51134014129639
0.0858983993530273	1.50037288665771
0.0848827362060547	1.48988246917725
0.083867073059082	1.47748470306396
0.0829296112060547	1.45507335662842
0.081913948059082	1.4526891708374
0.0808992385864258	1.44410610198975
0.0798835754394531	1.42503261566162
0.0789461135864258	1.42026424407959
0.0779304504394531	1.41358852386475
0.0769147872924805	1.39785289764404
0.0759773254394531	1.38450145721436
0.0749616622924805	1.37067317962646
0.0739459991455078	1.35589122772217
0.0730085372924805	1.35493755340576
0.0719928741455078	1.34063243865967
0.0709772109985352	1.32871150970459
0.0700397491455078	1.32298946380615
0.0690240859985352	1.31059169769287
0.0680084228515625	1.2996244430542
0.0669927597045898	1.29104137420654
0.0660552978515625	1.2843656539917
0.0650396347045898	1.28245830535889
0.0640239715576172	1.26433849334717
0.0630865097045898	1.25241756439209
0.0620708465576172	1.24001979827881
0.0610551834106445	1.23954296112061
0.0601177215576172	1.22666835784912
0.0591020584106445	1.21474742889404
0.0580863952636719	1.20282649993896
0.0570707321166992	1.20089530944824
0.0561332702636719	1.19197845458984
0.0551176071166992	1.17905569076538
0.0541019439697266	1.16751623153687
0.0531644821166992	1.15621519088745
0.0521488189697266	1.15411710739136
0.0511331558227539	1.13928747177124
0.0501956939697266	1.13742780685425
0.0491800308227539	1.12512540817261
0.0481643676757813	1.11883115768433
0.0472269058227539	1.11372900009155
0.0462112426757813	1.10099744796753
0.0451955795288086	1.08592939376831
0.0441799163818359	1.07176733016968
0.0432424545288086	1.07620191574097
0.0422267913818359	1.0666651725769
0.0412111282348633	1.06108570098877
0.0402736663818359	1.05145359039307
0.0392580032348633	1.0416784286499
0.0382423400878906	1.02818393707275
0.0373048782348633	1.02579975128174
0.0362892150878906	1.02155590057373
0.035273551940918	1.00958728790283
0.0342578887939453	1.00267314910889
0.033320426940918	0.995139122009277
0.0323047637939453	0.990132331848145
0.0312891006469727	0.981692314147949
0.0303516387939453	0.983885765075684
0.0293359756469727	0.965432167053223
0.0283203125	0.95732593536377
0.0273828506469727	0.95274829864502
0.0263671875	0.941590309143066
0.0253515243530273	0.940493583679199
0.0244140625	0.927713871002197
0.0233983993530273	0.919512271881104
0.0223827362060547	0.909546375274658
0.021367073059082	0.9098801612854
0.0204296112060547	0.907400608062744
0.019413948059082	0.902298450469971
0.0183982849121094	0.88694429397583
0.017460823059082	0.888184070587158
0.0164451599121094	0.874212741851807
0.0154294967651367	0.870827198028564
0.0144920349121094	0.854185581207275
0.0134763717651367	0.863102436065674
0.0124607086181641	0.85180139541626
0.0114450454711914	0.853947162628174
0.0105075836181641	0.836113452911377
0.00949192047119141	0.83206033706665
0.00847625732421875	0.825050830841064
0.00753879547119141	0.818089008331299
0.00652313232421875	0.816944599151611
0.00550746917724609	0.792673110961914
0.00457000732421875	0.792816162109375
0.00355434417724609	0.800159454345703
0.00253868103027344	0.788810729980469
0.00160121917724609	0.776317596435547
5.85556030273438E-4	0.780895233154297
-4.30107116699219E-4	0.768878936767578
-0.00144481658935547	0.761249542236328
-0.00238323211669922	0.749805450439453
-0.00339794158935547	0.747945785522461
-0.00441360473632813	0.74327278137207
-0.00535202026367188	0.736978530883789
-0.00636672973632813	0.733306884765625
-0.00738239288330078	0.717189788818359
-0.00831985473632813	0.711706161499023
-0.00933551788330078	0.714614868164063
-0.0103511810302734	0.700691223144531
-0.0113668441772461	0.694206237792969
-0.0123043060302734	0.698736190795898
-0.0133199691772461	0.693061828613281
-0.0143356323242188	0.682857036590576
-0.0152730941772461	0.679280757904053
-0.0162887573242188	0.678327083587646
-0.0173044204711914	0.668933391571045
-0.0182418823242188	0.661733150482178
-0.0192575454711914	0.658252239227295
-0.0202732086181641	0.651147365570068
-0.0212106704711914	0.650336742401123
-0.0222263336181641	0.63617467880249
-0.0232419967651367	0.636985301971436
-0.0242576599121094	0.62387228012085
-0.0251951217651367	0.620582103729248
-0.0262107849121094	0.6101393699646
-0.027226448059082	0.609996318817139
-0.0281639099121094	0.609138011932373
-0.029179573059082	0.600507259368896
-0.0301952362060547	0.596930980682373
-0.031132698059082	0.588681697845459
-0.0321483612060547	0.58119535446167
-0.0331640243530273	0.579907894134521
-0.0341796875	0.576236248016357
-0.0351171493530273	0.565125942230225
-0.0361328125	0.560738563537598
-0.0371484756469727	0.563123226165771
-0.0380859375	0.546624183654785
-0.0391016006469727	0.542952537536621
-0.0401172637939453	0.541426658630371
-0.0410547256469727	0.526167869567871
-0.0420703887939453	0.533749580383301
-0.043086051940918	0.531746864318848
-0.0440235137939453	0.523163795471191
-0.045039176940918	0.523068428039551
-0.0460548400878906	0.504805564880371
-0.0470705032348633	0.499131202697754
-0.0480079650878906	0.504042625427246
-0.0490236282348633	0.488306999206543
-0.0500392913818359	0.491883277893066
-0.0509767532348633	0.48320484161377
-0.0519924163818359	0.481535911560059
-0.0530080795288086	0.473095893859863
-0.0539455413818359	0.470234870910645
-0.0549612045288086	0.45736026763916
-0.0559768676757813	0.457646369934082
-0.0569143295288086	0.452258110046387
-0.0579299926757813	0.436378955841064
-0.0589456558227539	0.432993412017822
-0.0599613189697266	0.437905311584473
-0.0608987808227539	0.431515216827393
-0.0619144439697266	0.424267292022705
-0.0629301071166992	0.414873600006104
-0.0638675689697266	0.415255069732666
-0.0648832321166992	0.41124963760376
-0.0658988952636719	0.405527591705322
-0.0668363571166992	0.397373676300049
-0.0678520202636719	0.38540506362915
-0.0688676834106445	0.384832859039307
-0.0698833465576172	0.382019519805908
-0.0708208084106445	0.383926868438721
-0.0718364715576172	0.370337009429932
-0.0728521347045898	0.360561847686768
-0.0737895965576172	0.364567279815674
-0.0748052597045898	0.357080936431885
-0.0758209228515625	0.357223987579346
-0.0767583847045898	0.34721040725708
-0.0777740478515625	0.336910724639893
-0.0787897109985352	0.334478855133057
-0.0797271728515625	0.331188678741455
-0.0807428359985352	0.320030689239502
-0.0817584991455078	0.315071582794189
-0.0827741622924805	0.316883563995361
-0.0837116241455078	0.307394027709961
-0.0847272872924805	0.303293228149414
-0.0857429504394531	0.293088912963867
-0.0866804122924805	0.288558959960938
-0.0876960754394531	0.28889274597168
-0.0887107849121094	0.273157119750977
-0.0896492004394531	0.273967742919922
-0.0906639099121094	0.266958236694336
-0.091679573059082	0.269533157348633
-0.0926952362060547	0.260473251342773
-0.093632698059082	0.259757995605469
-0.0946483612060547	0.249792098999023
-0.0956640243530273	0.244546890258789
-0.0966014862060547	0.243736267089844
-0.0976171493530273	0.234533309936523
-0.0986328125	0.227428436279297
-0.0995702743530273	0.225378036499023
-0.1005859375	0.20954704284668
-0.101601600646973	0.208164215087891
-0.1025390625	0.21269416809082
-0.103554725646973	0.203586578369141
-0.104570388793945	0.198102951049805
-0.105586051940918	0.179505825042725
-0.106523513793945	0.188613891601563
-0.107539176940918	0.183082103729248
-0.108554840087891	0.171018123626709
-0.109492301940918	0.162101268768311
-0.110507965087891	0.161290645599365
-0.111523628234863	0.148463726043701
-0.112461090087891	0.148654460906982
-0.113476753234863	0.143456935882568
-0.114492416381836	0.145936489105225
-0.115508079528809	0.14069128036499
-0.116445541381836	0.128102779388428
-0.117461204528809	0.124669551849365
-0.118476867675781	0.119376659393311
-0.119414329528809	0.113749980926514
-0.120429992675781	0.108790874481201
-0.121445655822754	0.100017070770264
-0.122383117675781	0.093198299407959
-0.123398780822754	0.0894789695739746
-0.124414443969727	0.0899558067321777
-0.125351905822754	0.068784236907959
-0.126367568969727	0.0681166648864746
-0.127383232116699	0.0716452598571777
-0.128398895263672	0.0587224960327148
-0.129336357116699	0.0548124313354492
-0.130352020263672	0.0439882278442383
-0.131367683410645	0.0416994094848633
-0.132305145263672	0.0367403030395508
-0.133320808410645	0.0244379043579102
-0.134336471557617	0.0270605087280273
-0.135273933410645	0.020909309387207
-0.136289596557617	0.00302791595458984
-0.13730525970459	0.012516975402832
-0.138320922851563	4.05311584472656E-4
-0.13925838470459	0.00216960906982422
-0.140274047851563	-0.00846385955810547
-0.141289710998535	-0.0191450119018555
-0.142227172851563	-0.0234365463256836
-0.143242835998535	-0.0295400619506836
-0.144258499145508	-0.0381708145141602
-0.145195960998535	-0.0411272048950195
-0.146211624145508	-0.056004524230957
-0.14722728729248	-0.0554323196411133
-0.148164749145508	-0.0604867935180664
-0.14918041229248	-0.069404125213623
-0.150196075439453	-0.075650691986084
-0.151211738586426	-0.079465389251709
-0.152149200439453	-0.084805965423584
-0.153164863586426	-0.100112438201904
-0.154180526733398	-0.10101842880249
-0.155117988586426	-0.108361721038818
-0.156133651733398	-0.113654613494873
-0.157149314880371	-0.123572826385498
-0.158086776733398	-0.128674983978271
-0.159102439880371	-0.1360182762146
-0.160118103027344	-0.139642238616943
-0.161133766174316	-0.145125865936279
-0.162071228027344	-0.147510051727295
-0.163086891174316	-0.159383296966553
-0.164102554321289	-0.162292003631592
-0.165040016174316	-0.173640727996826
-0.166055679321289	-0.180221080780029
-0.167071342468262	-0.178981304168701
-0.168008804321289	-0.190092086791992
-0.169024467468262	-0.191188812255859
-0.170040130615234	-0.199151992797852
-0.170977592468262	-0.21717643737793
-0.171993255615234	-0.224472045898438
-0.173007965087891	-0.222040176391602
-0.174023628234863	-0.232006072998047
-0.174961090087891	-0.226760864257813
-0.175976753234863	-0.248790740966797
-0.176992416381836	-0.250364303588867
-0.177929878234863	-0.265146255493164
-0.178945541381836	-0.264860153198242
-0.179961204528809	-0.276113510131836
-0.180898666381836	-0.280643463134766
-0.181914329528809	-0.284553527832031
-0.182929992675781	-0.293136596679688
-0.183867454528809	-0.303007125854492
-0.184883117675781	-0.307012557983398
-0.185898780822754	-0.309921264648438
-0.186914443969727	-0.328375339508057
-0.187851905822754	-0.323368549346924
-0.188867568969727	-0.340868473052979
-0.189883232116699	-0.348545551300049
-0.190820693969727	-0.352026462554932
-0.191836357116699	-0.360228061676025
-0.192852020263672	-0.370337009429932
-0.193789482116699	-0.37772798538208
-0.194805145263672	-0.389601230621338
-0.195820808410645	-0.391651630401611
-0.196836471557617	-0.392176151275635
-0.197773933410645	-0.407196521759033
-0.198789596557617	-0.417877674102783
-0.19980525970459	-0.421167850494385
-0.200742721557617	-0.425364017486572
-0.20175838470459	-0.448395729064941
-0.202774047851563	-0.444485664367676
-0.20371150970459	-0.455500602722168
-0.204727172851563	-0.463082313537598
-0.205742835998535	-0.465418815612793
-0.206680297851563	-0.481345176696777
-0.207695960998535	-0.494791984558105
-0.208711624145508	-0.491549491882324
-0.20972728729248	-0.505806922912598
-0.210664749145508	-0.516201972961426
-0.21168041229248	-0.514866828918457
-0.212696075439453	-0.529601097106934
-0.21363353729248	-0.535037040710449
-0.214649200439453	-0.553061485290527
-0.215664863586426	-0.558306694030762
-0.216602325439453	-0.560261726379395
-0.217617988586426	-0.561501502990723
-0.218633651733398	-0.584867000579834
-0.219649314880371	-0.589301586151123
-0.220586776733398	-0.596740245819092
-0.221602439880371	-0.610854625701904
-0.222618103027344	-0.613620281219482
-0.223555564880371	-0.622298717498779
-0.224571228027344	-0.625064373016357
-0.225586891174316	-0.643994808197021
-0.226524353027344	-0.66049337387085
-0.227540016174316	-0.665547847747803
-0.228555679321289	-0.673463344573975
-0.229493141174316	-0.68042516708374
-0.230508804321289	-0.690534591674805
-0.231524467468262	-0.705936431884766
-0.232540130615234	-0.706890106201172
-0.233477592468262	-0.725677490234375
-0.234493255615234	-0.733974456787109
-0.235508918762207	-0.740793228149414
-0.236446380615234	-0.749853134155273
-0.237462043762207	-0.763824462890625
-0.23847770690918	-0.774314880371094
-0.239415168762207	-0.782993316650391
-0.24043083190918	-0.798776626586914
-0.241446495056152	-0.804021835327148
-0.242462158203125	-0.818422794342041
-0.243399620056152	-0.829294681549072
-0.244415283203125	-0.844648838043213
-0.245430946350098	-0.849894046783447
-0.246368408203125	-0.862816333770752
-0.247384071350098	-0.874927997589111
-0.24839973449707	-0.8793625831604
-0.249337196350098	-0.891331195831299
-0.25035285949707	-0.903347492218018
-0.251368522644043	-0.918653964996338
-0.25230598449707	-0.933245182037354
-0.253321647644043	-0.943306922912598
-0.254337310791016	-0.957850456237793
-0.255352020263672	-0.97110652923584
-0.256290435791016	-0.975445747375488
-0.257306098937988	-0.995091438293457
-0.258320808410645	-1.01154232025146
-0.259259223937988	-1.01926708221436
-0.260273933410645	-1.03218936920166
-0.261289596557617	-1.04978466033936
-0.262227058410645	-1.05460071563721
-0.263242721557617	-1.07629728317261
-0.26425838470459	-1.08936262130737
-0.265274047851563	-1.09990072250366
-0.26621150970459	-1.10857915878296
-0.267227172851563	-1.13103818893433
-0.268242835998535	-1.13795232772827
-0.269180297851563	-1.14829969406128
-0.270195960998535	-1.1697096824646
-0.271211624145508	-1.17981863021851
-0.272149085998535	-1.20018005371094
-0.273164749145508	-1.21601104736328
-0.27418041229248	-1.22817039489746
-0.275117874145508	-1.24066352844238
-0.27613353729248	-1.2590217590332
-0.277149200439453	-1.27466201782227
-0.278164863586426	-1.28777503967285
-0.279102325439453	-1.30770683288574
-0.280117988586426	-1.32239389419556
-0.281133651733398	-1.33770036697388
-0.282071113586426	-1.35520029067993
-0.283086776733398	-1.37141275405884
-0.284102439880371	-1.3809494972229
-0.285039901733398	-1.40083360671997
-0.286055564880371	-1.423912525177
-0.287071228027344	-1.43640565872192
-0.288086891174316	-1.45552730560303
-0.289024353027344	-1.47188282012939
-0.290040016174316	-1.48962116241455
-0.291055679321289	-1.50817012786865
-0.291993141174316	-1.53134441375732
-0.293008804321289	-1.55952548980713
-0.294024467468262	-1.57163763046265
-0.294961929321289	-1.59133100509644
-0.295977592468262	-1.60177373886108
-0.296993255615234	-1.62742757797241
-0.297930717468262	-1.652747631073
-0.298946380615234	-1.66910314559937
-0.299962043762207	-1.67849683761597
-0.30097770690918	-1.70524787902832
-0.301915168762207	-1.7288990020752
-0.30293083190918	-1.75045204162598
-0.303946495056152	-1.76737976074219
-0.30488395690918	-1.79665756225586
-0.305899620056152	-1.81663751602173
-0.306915283203125	-1.84248208999634
-0.307852745056152	-1.85979127883911
-0.308868408203125	-1.88530206680298
-0.309884071350098	-1.90714120864868
-0.310821533203125	-1.93312883377075
-0.311837196350098	-1.94829273223877
-0.31285285949707	-1.98248195648193
-0.313868522644043	-2.00985240936279
-0.31480598449707	-2.03221607208252
-0.315821647644043	-2.05643939971924
-0.316837310791016	-2.07846975326538
-0.317774772644043	-2.10278844833374
-0.318790435791016	-2.13025426864624
-0.319806098937988	-2.1581015586853
-0.320743560791016	-2.18609189987183
-0.321759223937988	-2.21517944335938
-0.322774887084961	-2.24145317077637
-0.323790550231934	-2.26910972595215
-0.324728012084961	-2.29571747779846
-0.325743675231934	-2.32132363319397
-0.326759338378906	-2.35260438919067
-0.327696800231934	-2.38965463638306
-0.328712463378906	-2.40663027763367
-0.329728126525879	-2.4489734172821
-0.330665588378906	-2.47434139251709
-0.331681251525879	-2.50757694244385
-0.332696914672852	-2.52912998199463
-0.333634376525879	-2.57161641120911
